"PointID","x","y","Density","Momentum_x","Momentum_y","Energy","Pressure","Temperature","Mach","Pressure_Coefficient"
0, -2.000000000000000e+01, 0.000000000000000e+00, 9.999999994473960e-01, 1.774823935864226e+00, -9.803902932826177e-10, 4.074999998718818e+00, 9.999999984760700e-01, 9.999999990286740e-01, 1.500000002347063e+00, -9.675745918765907e-10
1, -1.984229087829600e+01, -2.506669998169000e+00, 9.999999899455098e-01, 1.774823911699948e+00, 2.955662891886100e-09, 4.074999956298005e+00, 9.999999926764919e-01, 1.000000002730982e+00, 1.499999993400619e+00, -4.649846433816646e-09
2, -1.937166023254400e+01, -4.973800182343000e+00, 1.000000012229413e+00, 1.774823961433477e+00, -7.139385512324769e-09, 4.075000052266032e+00, 1.000000009795258e+00, 9.999999975658456e-01, 1.500000005881120e+00, 6.219211671227715e-09
3, -1.859552955627400e+01, -7.362490177155000e+00, 1.000000014005050e+00, 1.774823966335452e+00, -2.742142370562102e-09, 4.075000060393359e+00, 1.000000010684784e+00, 9.999999966797345e-01, 1.500000008025173e+00, 6.783989807302766e-09
4, -1.752613067627000e+01, -9.635080337524000e+00, 9.999999996514594e-01, 1.774823929018929e+00, -9.605481549868646e-09, 4.074999995874240e+00, 1.000000002326477e+00, 1.000000002675018e+00, 1.499999993520878e+00, 1.477128542938368e-09
5, -1.618033981323200e+01, -1.175570964813200e+01, 9.999999630362693e-01, 1.774823919062797e+00, 3.492229197032862e-08, 4.074999874566862e+00, 9.999999378041081e-01, 9.999999747678379e-01, 1.500000060959584e+00, -3.948945516264582e-08
6, -1.457936954498300e+01, -1.369093990325900e+01, 1.000000041324669e+00, 1.774824034228006e+00, 3.946589561984660e-08, 4.075000180594867e+00, 1.000000027777815e+00, 9.999999864531458e-01, 1.500000032095366e+00, 1.763670775560622e-08
7, -1.274847984314000e+01, -1.541026973724400e+01, 1.000000268247552e+00, 1.774824153859121e+00, -2.157692689392444e-07, 4.075000982182274e+00, 1.000000406444505e+00, 1.000000138196916e+00, 1.499999679010056e+00, 2.580600031372736e-07
8, -1.071652984619100e+01, -1.688656044006300e+01, 9.999998496502827e-01, 1.774823572606639e+00, 7.268894648072594e-08, 4.074999368565534e+00, 9.999999099298758e-01, 1.000000060279602e+00, 1.499999874095836e+00, -5.718738047484917e-08
9, -8.515580177306999e+00, -1.809654045105000e+01, 9.999990760224624e-01, 1.774823382562380e+00, 1.008717551955391e-06, 4.074996332632733e+00, 9.999983430888324e-01, 9.999992670656928e-01, 1.500001468833020e+00, -1.052007090541181e-06
10, -6.180339813232000e+00, -1.902112960815400e+01, 9.999992756558060e-01, 1.774821495718977e+00, 1.331275171343373e-07, 4.074995991021860e+00, 9.999996717395926e-01, 1.000000396084073e+00, 1.499998727943338e+00, -2.084193062931684e-07
11, -3.747620105743000e+00, -1.964575004577600e+01, 1.000004093270051e+00, 1.774829423943765e+00, -5.840214380930136e-06, 4.075018018490520e+00, 1.000005889335602e+00, 1.000001796058199e+00, 1.499997152132136e+00, 3.739260699735128e-06
12, -1.255810022354000e+00, -1.996052932739300e+01, 9.999915873625128e-01, 1.774825658773518e+00, 1.258416925927541e-05, 4.074973203700866e+00, 9.999827576240040e-01, 9.999911701872092e-01, 1.500020698491727e+00, -1.094754031491111e-05
13, 1.255810022354000e+00, -1.996052932739300e+01, 1.000033104414643e+00, 1.774885988563403e+00, 2.868216135394226e-05, 4.075131140535287e+00, 1.000029258119028e+00, 9.999961538317107e-01, 1.500005673013884e+00, 1.857658351011444e-05
14, 3.747629880905000e+00, -1.964574050903300e+01, 1.000068088985483e+00, 1.774744694237293e+00, -2.557536756824686e-04, 4.075197745731665e+00, 1.000178228577167e+00, 1.000110132092902e+00, 1.499748340061993e+00, 1.131610013760035e-04
15, 6.180339813232000e+00, -1.902112960815400e+01, 9.997953103053888e-01, 1.774612458060483e+00, 2.181269948693415e-04, 4.074249020034176e+00, 9.997207730617617e-01, 9.999254474962436e-01, 1.500184263854725e+00, -1.772869449132329e-04
16, 8.515589714050000e+00, -1.809654045105000e+01, 9.991668733235104e-01, 1.774439795299817e+00, 1.665165696369744e-03, 4.072039346312719e+00, 9.985627859933066e-01, 9.993954089688799e-01, 1.501380394143424e+00, -9.125168296465960e-04
17, 1.071654033660900e+01, -1.688656044006300e+01, 1.001595154888809e+00, 1.776230335379811e+00, -1.770130230109359e-03, 4.080868781289843e+00, 1.002352983831390e+00, 1.000756622013277e+00, 1.498231864496832e+00, 1.493957988184014e-03
18, 1.274847984314000e+01, -1.541026020050000e+01, 1.011089218265373e+00, 1.784822002867704e+00, -1.044013436835629e-02, 4.115555939652160e+00, 1.016070551318277e+00, 1.004926699803456e+00, 1.488269738342659e+00, 1.020352464652526e-02
19, 1.457936954498300e+01, -1.369093990325900e+01, 1.011781241090015e+00, 1.786993834383261e+00, -1.192359294896208e-02, 4.118633747820354e+00, 1.016192707466856e+00, 1.004360098999354e+00, 1.489489188323662e+00, 1.028108410594059e-02
20, 1.618033981323200e+01, -1.175570011138900e+01, 1.002116950317903e+00, 1.777591528496007e+00, -3.277995669790137e-03, 4.083109766132144e+00, 1.002610448664526e+00, 1.000492455842071e+00, 1.498798933130571e+00, 1.657427723508699e-03
21, 1.752614021301300e+01, -9.635069847106999e+00, 9.970949929869838e-01, 1.771447655443256e+00, 2.321726616017318e-03, 4.064061345127643e+00, 9.961895878284449e-01, 9.990919569700911e-01, 1.502191887462245e+00, -2.419309315273073e-03
22, 1.859552955627400e+01, -7.362490177155000e+00, 9.991736190397953e-01, 1.773434010041053e+00, 9.521216173748338e-04, 4.071673061849103e+00, 9.991351708825607e-01, 9.999615200436620e-01, 1.500094002401968e+00, -5.490978523424431e-04
23, 1.937166023254400e+01, -4.973790168762000e+00, 9.999843279108059e-01, 1.773338533798767e+00, -5.493863747961481e-04, 4.074197453594589e+00, 1.000723152929803e+00, 1.000738836598110e+00, 1.498214801894956e+00, 4.591447173350024e-04
24, 1.984229087829600e+01, -2.506659984589000e+00, 9.958026680890362e-01, 1.758903083247999e+00, 5.699019720934632e-04, 4.053610382934306e+00, 1.000088039118611e+00, 1.004303433970305e+00, 1.489608547843218e+00, 5.589785308655697e-05
25, 2.000000000000000e+01, 0.000000000000000e+00, 9.929279965704921e-01, 1.747640614917222e+00, -1.921763683802218e-04, 4.038792745992488e+00, 1.000316848955108e+00, 1.007441478546416e+00, 1.482041769254335e+00, 2.011739397508123e-04
26, 1.984229087829600e+01, 2.506659984589000e+00, 9.955519561967332e-01, 1.758219177101580e+00, -9.298941922298783e-04, 4.052468278162901e+00, 9.999578370746478e-01, 1.004425565989289e+00, 1.489313911688788e+00, -2.677011133472764e-05
27, 1.937166023254400e+01, 4.973800182343000e+00, 1.000060875137930e+00, 1.773649888258382e+00, 5.204433752560297e-04, 4.074598379347059e+00, 1.000710810629484e+00, 1.000649895929050e+00, 1.498429734633562e+00, 4.513083361800173e-04
28, 1.859552955627400e+01, 7.362490177155000e+00, 1.000500692723240e+00, 1.775628232309936e+00, 3.530879413718984e-04, 4.076998324292284e+00, 1.000543745292376e+00, 1.000043031023815e+00, 1.499896510902557e+00, 3.452351062701923e-04
29, 1.752613067627000e+01, 9.635069847106999e+00, 9.964727937210428e-01, 1.770626214777628e+00, -3.047633775264049e-03, 4.061670674682526e+00, 9.954234976555683e-01, 9.989469897501605e-01, 1.502542787745913e+00, -2.905715774242378e-03
30, 1.618033981323200e+01, 1.175570964813200e+01, 1.000516809238624e+00, 1.775182723546760e+00, 2.048161852765767e-03, 4.076814167498589e+00, 1.000795641267247e+00, 1.000278688000090e+00, 1.499320353009130e+00, 5.051690585694988e-04
31, 1.457936954498300e+01, 1.369093990325900e+01, 1.012004615622486e+00, 1.787081174666473e+00, 1.331596483215957e-02, 4.119375913693505e+00, 1.016560271981202e+00, 1.004501616186715e+00, 1.489136486622407e+00, 1.051445840076298e-02
32, 1.274847984314000e+01, 1.541026973724400e+01, 1.011136336548356e+00, 1.785385605839474e+00, 1.138163389159370e-02, 4.115979934576677e+00, 1.015867446542775e+00, 1.004679003041835e+00, 1.488858604395182e+00, 1.007456923350826e-02
33, 1.071654033660900e+01, 1.688656044006300e+01, 1.001752347926931e+00, 1.776332446314267e+00, 1.569642603922759e-03, 4.081416577679929e+00, 1.002598669402290e+00, 1.000844841019949e+00, 1.498016696457491e+00, 1.649948826850745e-03
34, 8.515589714050000e+00, 1.809654045105000e+01, 9.987163659545489e-01, 1.773869036014836e+00, -1.556110191355683e-03, 4.070247361734070e+00, 9.979673306184589e-01, 9.992500019408673e-01, 1.501683664804502e+00, -1.290583734311822e-03
35, 6.180339813232000e+00, 1.902112960815400e+01, 9.998716625125317e-01, 1.774832782096274e+00, -2.509260168465173e-04, 4.074617793860100e+00, 9.997599602678956e-01, 9.998882834179385e-01, 1.500283829744908e+00, -1.524061791139063e-04
36, 3.747629880905000e+00, 1.964575004577600e+01, 1.000108448204957e+00, 1.774781813447855e+00, 2.540890385488490e-04, 4.075346912342423e+00, 1.000236966674990e+00, 1.000128504533948e+00, 1.499705409036220e+00, 1.504550317399379e-04
37, 1.255810022354000e+00, 1.996052932739300e+01, 1.000046525313902e+00, 1.774933196960212e+00, -6.776519325659172e-05, 4.075194493188615e+00, 1.000029538815740e+00, 9.999830142921032e-01, 1.500035294977635e+00, 1.875480364421469e-05
38, -1.255810022354000e+00, 1.996052932739300e+01, 9.999757751864211e-01, 1.774779143036723e+00, -6.211503524927252e-06, 4.074899155501244e+00, 9.999761996492099e-01, 1.000000424473072e+00, 1.499998162779298e+00, -1.511133383497265e-05
39, -3.747629880905000e+00, 1.964574050903300e+01, 1.000007493355360e+00, 1.774837058973558e+00, 5.082549744308776e-06, 4.075032198029922e+00, 1.000008282873939e+00, 1.000000789512662e+00, 1.499999259681482e+00, 5.258967580143042e-06
40, -6.180339813232000e+00, 1.902112960815400e+01, 9.999989196124401e-01, 1.774821484828727e+00, -6.597534501176020e-07, 4.074994511371568e+00, 9.999988633035912e-01, 9.999999436910902e-01, 1.499999592099211e+00, -7.217120055724903e-07
41, -8.515589714050000e+00, 1.809654045105000e+01, 9.999989373619980e-01, 1.774822032062084e+00, -5.249060835849310e-07, 4.074995490698930e+00, 9.999988777197022e-01, 9.999999403576408e-01, 1.500000030472007e+00, -7.125589192412916e-07
42, -1.071654033660900e+01, 1.688656044006300e+01, 1.000000458618424e+00, 1.774824768279098e+00, 4.222771803674544e-07, 4.075001978549903e+00, 1.000000488730280e+00, 1.000000030111842e+00, 1.499999993797150e+00, 3.103049399796315e-07
43, -1.274847984314000e+01, 1.541026020050000e+01, 9.999999356654409e-01, 1.774823671820325e+00, -9.638404581210809e-08, 4.074999653645932e+00, 1.000000007716852e+00, 1.000000072051415e+00, 1.499999820095115e+00, 4.899588318837220e-09
44, -1.457936954498300e+01, 1.369093990325900e+01, 1.000000027054765e+00, 1.774824019653542e+00, 5.311637932089416e-08, 4.075000129631186e+00, 1.000000008749146e+00, 9.999999816943811e-01, 1.500000044751626e+00, 5.555013239523358e-09
45, -1.618033981323200e+01, 1.175570011138900e+01, 9.999999600439446e-01, 1.774823862839901e+00, -2.410023278095249e-08, 4.074999836344833e+00, 9.999999605444293e-01, 1.000000000500485e+00, 1.499999998631563e+00, -2.505115599968841e-08
46, -1.752613067627000e+01, 9.635069847106999e+00, 1.000000014953168e+00, 1.774823958408384e+00, 5.871662269812736e-09, 4.075000059421304e+00, 1.000000016520936e+00, 1.000000001567768e+00, 1.499999996237375e+00, 1.048948328549693e-08
47, -1.859552955627400e+01, 7.362490177155000e+00, 1.000000001052997e+00, 1.774823932529082e+00, -2.802696364964457e-09, 4.075000002119700e+00, 1.000000003215669e+00, 1.000000002162672e+00, 1.499999994769452e+00, 2.041694362076901e-09
48, -1.937166023254400e+01, 4.973800182343000e+00, 1.000000002026074e+00, 1.774823939933582e+00, 1.546366251046104e-09, 4.075000008976767e+00, 1.000000001314861e+00, 9.999999992887867e-01, 1.500000001723194e+00, 8.348324500831145e-10
49, -1.984229087829600e+01, 2.506659984589000e+00, 1.000000002087243e+00, 1.774823941542975e+00, -2.637999778498743e-09, 4.075000009985540e+00, 1.000000000614350e+00, 9.999999985271072e-01, 1.500000003562887e+00, 3.900635722709288e-10
50, 0.000000000000000e+00, 0.000000000000000e+00, 2.332690116884325e+00, -9.166021405627323e-06, 3.589551672913975e-02, 8.456080582479595e+00, 3.382321760692414e+00, 1.449966172622208e+00, 1.080040947897681e-02, 1.512585244884073e+00
51, 5.999999800000000e-05, 1.375329724321098e-03, 2.350878560516234e+00, 4.298508089228798e-02, 3.192746081161248e-01, 8.528241481364477e+00, 3.402467213239678e+00, 1.447317301023207e+00, 9.626958441217627e-02, 1.525376008406145e+00
52, 5.600000150000000e-04, 4.173159738460802e-03, 2.312851846279762e+00, 1.889887184429572e-01, 6.977966730433609e-01, 8.416369482560500e+00, 3.321353637293925e+00, 1.436042538840672e+00, 2.204471881510671e-01, 1.473875325265985e+00
53, 1.560000004000000e-03, 6.917517506923035e-03, 2.207827742164059e+00, 4.504687545511287e-01, 9.831913749524150e-01, 8.079053530620651e+00, 3.125672260847411e+00, 1.415722885057918e+00, 3.479349104213981e-01, 1.349633181490421e+00
54, 3.049999941000000e-03, 9.605565346412577e-03, 2.112983744904001e+00, 7.442032816703330e-01, 1.142595636316326e+00, 7.785276143320860e+00, 2.938116362053135e+00, 1.390505899129207e+00, 4.625253463773692e-01, 1.230550071144848e+00
55, 5.040000193000000e-03, 1.226032473458219e-02, 2.008487943112020e+00, 1.012787511263790e+00, 1.192342246730847e+00, 7.454845629227206e+00, 2.738230682053302e+00, 1.363329409790030e+00, 5.637940360235635e-01, 1.103638528287811e+00
56, 7.519999985000000e-03, 1.486756313872443e-02, 1.911979307782267e+00, 1.235308090465285e+00, 1.171635054261156e+00, 7.147507936742983e+00, 2.555787050239780e+00, 1.336723174689728e+00, 6.509307647194204e-01, 9.878013017395433e-01
57, 1.049000024800000e-02, 1.742916196961543e-02, 1.823965257949057e+00, 1.407564796979273e+00, 1.111505565729155e+00, 6.863812073077612e+00, 2.392811611002407e+00, 1.311873458430335e+00, 7.255671275067644e-01, 8.843248323824809e-01
58, 1.394999958600000e-02, 1.994492353858276e-02, 1.746079468777528e+00, 1.535832019350584e+00, 1.033138766110183e+00, 6.609852242870207e+00, 2.251501061165027e+00, 1.289460818608306e+00, 7.889899096945568e-01, 7.946038483587480e-01
59, 1.789999939500000e-02, 2.241364555514381e-02, 1.678802768650155e+00, 1.633731737949234e+00, 9.521942770157112e-01, 6.389937533515986e+00, 2.129986517373690e+00, 1.268753278913347e+00, 8.451455179530467e-01, 7.174517570626605e-01
60, 2.232000045500000e-02, 2.482329437156798e-02, 1.615525736161475e+00, 1.702837122440827e+00, 8.706861607530750e-01, 6.179726908117536e+00, 2.019066202893011e+00, 1.249788943437297e+00, 8.949745626681845e-01, 6.470261605669916e-01
61, 2.723000012300000e-02, 2.718419978786347e-02, 1.562084959218772e+00, 1.752519156870406e+00, 7.940468288786113e-01, 6.001101275592652e+00, 1.926479892435415e+00, 1.233274721113046e+00, 9.373674585269852e-01, 5.882412015462957e-01
62, 3.260000050100000e-02, 2.948109446637338e-02, 1.515761024604494e+00, 1.790158825441388e+00, 7.240112204764491e-01, 5.846070649840236e+00, 1.846416550022329e+00, 1.218144892268960e+00, 9.755372603358533e-01, 5.374073333475108e-01
63, 3.844000026600000e-02, 3.171811260404538e-02, 1.471452624573605e+00, 1.815924580016100e+00, 6.595148805639579e-01, 5.696392554746518e+00, 1.771229514963268e+00, 1.203728536945952e+00, 1.011411224668352e+00, 4.896695333100115e-01
64, 4.473999887700000e-02, 3.389028465845557e-02, 1.430790051329371e+00, 1.832828112438861e+00, 6.004284351328532e-01, 5.558014457264232e+00, 1.703245053236629e+00, 1.190422767934481e+00, 1.044161529947509e+00, 4.465047957057963e-01
65, 5.149000138000000e-02, 3.599337852580232e-02, 1.394717745988729e+00, 1.844033587555763e+00, 5.467229071851100e-01, 5.434767800870992e+00, 1.643424760040835e+00, 1.178320677977604e+00, 1.073696518852397e+00, 4.085236571687841e-01
66, 5.869000032500000e-02, 3.802635805630503e-02, 1.361594556757692e+00, 1.850061752843818e+00, 4.976249971131013e-01, 5.320870687115379e+00, 1.589221688466807e+00, 1.167176881384686e+00, 1.100713054341175e+00, 3.741090085503539e-01
67, 6.633000075800000e-02, 3.998513962421356e-02, 1.331069941737217e+00, 1.854286608924438e+00, 4.531872647220880e-01, 5.216194983188713e+00, 1.538984971205253e+00, 1.156201430855452e+00, 1.127179519327270e+00, 3.422126801303198e-01
68, 7.440000027400000e-02, 4.186607976498817e-02, 1.299450008694017e+00, 1.852797217812753e+00, 4.117794479249991e-01, 5.106544145976629e+00, 1.488164648276222e+00, 1.145226548400941e+00, 1.153527268456007e+00, 3.099458084293477e-01
69, 8.290000259900000e-02, 4.366791468532204e-02, 1.270426888606291e+00, 1.848997666581335e+00, 3.737360720283524e-01, 5.005440925356837e+00, 1.441975534585454e+00, 1.135032285224503e+00, 1.177914897473966e+00, 2.806193870383838e-01
70, 9.181000292300000e-02, 4.538527151431038e-02, 1.244779352483761e+00, 1.844371356401694e+00, 3.388373160449688e-01, 4.915898275134088e+00, 1.401356939144617e+00, 1.125787422765673e+00, 1.199973721022286e+00, 2.548298026315032e-01
71, 1.011300012470000e-01, 4.701715290498424e-02, 1.221403912572404e+00, 1.838302032322310e+00, 3.065721903021151e-01, 4.833836083403297e+00, 1.364788773689777e+00, 1.117393484367828e+00, 1.219964831638018e+00, 2.316119198030329e-01
72, 1.108499988910000e-01, 4.856066993422563e-02, 1.200055518414256e+00, 1.832107942214400e+00, 2.768098215995856e-01, 4.758901773773692e+00, 1.331379983438446e+00, 1.109431991277971e+00, 1.238900947044784e+00, 2.103999894847279e-01
73, 1.209499984980000e-01, 5.001187382363489e-02, 1.178599169319062e+00, 1.824492802444963e+00, 2.490394619275805e-01, 4.683417727484080e+00, 1.297973059156720e+00, 1.101284552836251e+00, 1.258261248766277e+00, 1.891892439090287e-01
74, 1.314399987460000e-01, 5.137133628795417e-02, 1.156496093504671e+00, 1.814805214667343e+00, 2.230127784975003e-01, 4.605276410692993e+00, 1.263941267323415e+00, 1.092905781889103e+00, 1.278159493545641e+00, 1.675817570307396e-01
75, 1.422899961470000e-01, 5.263443049277360e-02, 1.134742459886799e+00, 1.803219524497847e+00, 1.985809559004031e-01, 4.527762627068385e+00, 1.231055362741325e+00, 1.084876442240588e+00, 1.297223450298165e+00, 1.467018176135395e-01
76, 1.534900069240000e-01, 5.379977779145956e-02, 1.115434777799426e+00, 1.793272592084593e+00, 1.759715398213085e-01, 4.459277728800796e+00, 1.201553777265821e+00, 1.077206665221874e+00, 1.315435496574979e+00, 1.279706522322674e-01
77, 1.650400012730000e-01, 5.486709202536137e-02, 1.096129525490461e+00, 1.781597164687240e+00, 1.546859694840939e-01, 4.390262854931243e+00, 1.172594501668214e+00, 1.069759069890521e+00, 1.333126764183842e+00, 1.095838105829928e-01
78, 1.769299954180000e-01, 5.583513598033686e-02, 1.078444256470666e+00, 1.770062579292923e+00, 1.347742949549052e-01, 4.326798491065563e+00, 1.146306131431582e+00, 1.062925714105060e+00, 1.349368939530053e+00, 9.289278186132202e-02
79, 1.891400069000000e-01, 5.670228146432130e-02, 1.062638972777941e+00, 1.759690238003945e+00, 1.161811507803393e-01, 4.270163922533400e+00, 1.122728898103790e+00, 1.056547827498518e+00, 1.364540406199610e+00, 7.792310990716840e-02
80, 2.016600072380000e-01, 5.746811193675738e-02, 1.047173703302231e+00, 1.748637377716743e+00, 9.868482128327007e-02, 4.214474151464919e+00, 1.099932440713731e+00, 1.050382030455049e+00, 1.379221034604965e+00, 6.344916870713052e-02
81, 2.144699990750000e-01, 5.813197420944613e-02, 1.032386201447613e+00, 1.737659397371545e+00, 8.223987231120732e-02, 4.161155781108585e+00, 1.078204267996883e+00, 1.044380742870278e+00, 1.393525334069930e+00, 4.965350349008437e-02
82, 2.275699973110000e-01, 5.869456802648413e-02, 1.017988633391661e+00, 1.726582834194447e+00, 6.677330187512576e-02, 4.109178880827700e+00, 1.057113537978560e+00, 1.038433537766081e+00, 1.407717966663876e+00, 3.626256379591120e-02
83, 2.409400045870000e-01, 5.915585896897953e-02, 1.003781803631608e+00, 1.714704581666467e+00, 5.219313126640083e-02, 4.057544614352261e+00, 1.036648195545604e+00, 1.032742565959144e+00, 1.421317253854087e+00, 2.326869558451073e-02
