"PointID","x","y","Density","Momentum_x","Momentum_y","Energy","Pressure","Temperature","Mach","Pressure_Coefficient"
0, -2.000000000000000e+01, 0.000000000000000e+00, 1.000200026481634e+00, 9.463007351490527e-01, 2.065207369107845e-02, 2.948565603018365e+00, 1.000279757349933e+00, 1.000079714923203e+00, 7.997686726455643e-01, 6.244583703859546e-04
1, -1.984229087829600e+01, -2.506669998169000e+00, 1.000211359579630e+00, 9.462991199851910e-01, 2.062071030113954e-02, 2.948598827942189e+00, 1.000295947253853e+00, 1.000084569799586e+00, 7.997557273427844e-01, 6.605965487781793e-04
2, -1.937166023254400e+01, -4.973800182343000e+00, 1.000228317842380e+00, 9.463024189067747e-01, 2.058630769108553e-02, 2.948652227090277e+00, 1.000319379220890e+00, 1.000091040592319e+00, 7.997417346644847e-01, 7.129000466304145e-04
3, -1.859552955627400e+01, -7.362490177155000e+00, 1.000251643476092e+00, 9.463083044780550e-01, 2.054428322841574e-02, 2.948728180262530e+00, 1.000352056380461e+00, 1.000100387642473e+00, 7.997235478053527e-01, 7.858401349573094e-04
4, -1.752613067627000e+01, -9.635080337524000e+00, 1.000282856070502e+00, 9.463223833208728e-01, 2.049137025272984e-02, 2.948834942396088e+00, 1.000395457490341e+00, 1.000112569578850e+00, 7.997046459308682e-01, 8.827176123680070e-04
5, -1.618033981323200e+01, -1.175570964813200e+01, 1.000325376887220e+00, 9.463449661926341e-01, 2.042599937375460e-02, 2.948983013818426e+00, 1.000454289892408e+00, 1.000128871073520e+00, 7.996820162459868e-01, 1.014039938411779e-03
6, -1.457936954498300e+01, -1.369093990325900e+01, 1.000384869287844e+00, 9.463804182703568e-01, 2.034003546022754e-02, 2.949196765088354e+00, 1.000537729269873e+00, 1.000152801173550e+00, 7.996532712684611e-01, 1.200288548823536e-03
7, -1.274847984314000e+01, -1.541026973724400e+01, 1.000465638063055e+00, 9.464363725998348e-01, 2.023087126366261e-02, 2.949492498004602e+00, 1.000650197665107e+00, 1.000184473704073e+00, 7.996213308967329e-01, 1.451334073898537e-03
8, -1.071652984619100e+01, -1.688656044006300e+01, 1.000570003230030e+00, 9.465199247334664e-01, 2.008796956422595e-02, 2.949887652641832e+00, 1.000796483137102e+00, 1.000226350886336e+00, 7.995891683916302e-01, 1.777864145317733e-03
9, -8.515580177306999e+00, -1.809654045105000e+01, 1.000701614364313e+00, 9.466337384398567e-01, 1.991772209162590e-02, 2.950392723626835e+00, 1.000980372328030e+00, 1.000278562520251e+00, 7.995561922333706e-01, 2.188331089352058e-03
10, -6.180339813232000e+00, -1.902112960815400e+01, 1.000848112726595e+00, 9.467675703475549e-01, 1.971768699578944e-02, 2.950970561750236e+00, 1.001188682224213e+00, 1.000340280901055e+00, 7.995239299270798e-01, 2.653308536188941e-03
11, -3.747620105743000e+00, -1.964575004577600e+01, 1.001024791240152e+00, 9.469571471092787e-01, 1.949348925878549e-02, 2.951683677242273e+00, 1.001435585394910e+00, 1.000410373607480e+00, 7.995108841262063e-01, 3.204431685066369e-03
12, -1.255810022354000e+00, -1.996052932739300e+01, 1.001189573268375e+00, 9.470471058169233e-01, 1.928332626619880e-02, 2.952271501412524e+00, 1.001667807159827e+00, 1.000477665673135e+00, 7.994246861453498e-01, 3.722783838898701e-03
13, 1.255810022354000e+00, -1.996052932739300e+01, 1.001300036393168e+00, 9.469955474032010e-01, 1.912342980442995e-02, 2.952538783392989e+00, 1.001815225778919e+00, 1.000514520490388e+00, 7.992755380426000e-01, 4.051843256514672e-03
14, 3.747629880905000e+00, -1.964574050903300e+01, 1.001289253337914e+00, 9.468657713088517e-01, 1.900513480626788e-02, 2.952392148822176e+00, 1.001804635326855e+00, 1.000514718386543e+00, 7.991725680015288e-01, 4.028203854587644e-03
15, 6.180339813232000e+00, -1.902112960815400e+01, 1.001215030428166e+00, 9.467455776245660e-01, 1.891773414001458e-02, 2.952054413859203e+00, 1.001702387155364e+00, 1.000486765292556e+00, 7.991400871447115e-01, 3.799971328937685e-03
16, 8.515589714050000e+00, -1.809654045105000e+01, 1.001092647369588e+00, 9.466194717902420e-01, 1.888265627149848e-02, 2.951557087323410e+00, 1.001529524947365e+00, 1.000436400745650e+00, 7.991508900877291e-01, 3.414118186083635e-03
17, 1.071654033660900e+01, -1.688656044006300e+01, 1.000935113817099e+00, 9.464838119290861e-01, 1.887605551792994e-02, 2.950947802670540e+00, 1.001308989679162e+00, 1.000373526572204e+00, 7.991871693489113e-01, 2.921851962414283e-03
18, 1.274847984314000e+01, -1.541026020050000e+01, 1.000777156531755e+00, 9.463724561366744e-01, 1.889140481267854e-02, 2.950357777467828e+00, 1.001086723646114e+00, 1.000309326719079e+00, 7.992452103642876e-01, 2.425722424360757e-03
19, 1.457936954498300e+01, -1.369093990325900e+01, 1.000631670899122e+00, 9.463133146698319e-01, 1.891327035602640e-02, 2.949855433428848e+00, 1.000881960233976e+00, 1.000250131334169e+00, 7.993355015038432e-01, 1.968661236553122e-03
20, 1.618033981323200e+01, -1.175570011138900e+01, 1.000488848477821e+00, 9.462884428937464e-01, 1.894657807963581e-02, 2.949408817347801e+00, 1.000686910275550e+00, 1.000197965022829e+00, 7.994500152649773e-01, 1.533281865066001e-03
21, 1.752614021301300e+01, -9.635069847106999e+00, 1.000345593661181e+00, 9.462707077677486e-01, 1.896790782261669e-02, 2.948988115638245e+00, 1.000499533816973e+00, 1.000153886973429e+00, 7.995675008171824e-01, 1.115030841456814e-03
22, 1.859552955627400e+01, -7.362490177155000e+00, 1.000286777741323e+00, 9.463928170356279e-01, 1.904335142004744e-02, 2.948829696970819e+00, 1.000378853214365e+00, 1.000092049075415e+00, 7.997436611154426e-01, 8.456544963502838e-04
23, 1.937166023254400e+01, -4.973790168762000e+00, 1.000166070332783e+00, 9.466060500277208e-01, 1.930059986419542e-02, 2.948512457984637e+00, 1.000147647098474e+00, 9.999815798247349e-01, 8.000689103736175e-01, 3.295694162356946e-04
24, 1.984229087829600e+01, -2.506659984589000e+00, 9.993661590092318e-01, 9.457204760647167e-01, 1.954400238442269e-02, 2.946153920992768e+00, 9.993942308029766e-01, 1.000028089598084e+00, 7.999461518063891e-01, -1.352163386212893e-03
25, 2.000000000000000e+01, 0.000000000000000e+00, 9.984633202214123e-01, 9.445939727339832e-01, 1.904540196458371e-02, 2.943490777880082e+00, 9.985974544322042e-01, 1.000134340649351e+00, 7.996650693508421e-01, -3.130682070972865e-03
26, 1.984229087829600e+01, 2.506659984589000e+00, 9.987036586233421e-01, 9.451982267297827e-01, 1.827262572225193e-02, 2.944252013962116e+00, 9.987220727151030e-01, 1.000018437993695e+00, 8.000172929821435e-01, -2.852516260930696e-03
27, 1.937166023254400e+01, 4.973800182343000e+00, 9.995688829325819e-01, 9.465585852986625e-01, 1.823452641974096e-02, 2.946869619652978e+00, 9.994094013247733e-01, 9.998404496072939e-01, 8.005454082257975e-01, -1.318300614345326e-03
28, 1.859552955627400e+01, 7.362490177155000e+00, 9.997865486952114e-01, 9.467976538933243e-01, 1.856165754715052e-02, 2.947547801634344e+00, 9.996267626110840e-01, 9.998401798020428e-01, 8.005786723582023e-01, -8.331191716875823e-04
29, 1.752613067627000e+01, 9.635069847106999e+00, 9.996412845611453e-01, 9.466429870501286e-01, 1.862784394828179e-02, 2.947159646478088e+00, 9.995035309723298e-01, 9.998621969791134e-01, 8.005565445750001e-01, -1.108189793906694e-03
30, 1.618033981323200e+01, 1.175570964813200e+01, 9.995359151133187e-01, 9.467152136576581e-01, 1.862241582451261e-02, 2.946903339364702e+00, 9.993547778453861e-01, 9.998187786299684e-01, 8.007192965515295e-01, -1.440228023691817e-03
31, 1.457936954498300e+01, 1.369093990325900e+01, 9.994240311558957e-01, 9.467872140320774e-01, 1.861229715451150e-02, 2.946623036840509e+00, 9.991953656581818e-01, 9.997712027221825e-01, 8.008887030005242e-01, -1.796058798701365e-03
32, 1.274847984314000e+01, 1.541026973724400e+01, 9.992821283062363e-01, 9.468097848187623e-01, 1.859892499637771e-02, 2.946214541432661e+00, 9.989980296435368e-01, 9.997156972443997e-01, 8.010435353513733e-01, -2.236540974248240e-03
33, 1.071654033660900e+01, 1.688656044006300e+01, 9.991164126567469e-01, 9.467867375972241e-01, 1.858572811620431e-02, 2.945681963309175e+00, 9.987640625322868e-01, 9.996473382680970e-01, 8.011840766149863e-01, -2.758788990431300e-03
34, 8.515589714050000e+00, 1.809654045105000e+01, 9.989527885938687e-01, 9.467404632115228e-01, 1.860051855346203e-02, 2.945129802480087e+00, 9.985312280802955e-01, 9.995779975606589e-01, 8.013041952086625e-01, -3.278508749340435e-03
35, 6.180339813232000e+00, 1.902112960815400e+01, 9.987909937703993e-01, 9.466184437101336e-01, 1.868037698189160e-02, 2.944533034069122e+00, 9.983091051509854e-01, 9.995175280690161e-01, 8.013563170897395e-01, -3.774318859407668e-03
36, 3.747629880905000e+00, 1.964575004577600e+01, 9.987308015670572e-01, 9.465093253665509e-01, 1.884788718802163e-02, 2.944245215364262e+00, 9.982232678160691e-01, 9.994918212693633e-01, 8.013253855466400e-01, -3.965920053417254e-03
37, 1.255810022354000e+00, 1.996052932739300e+01, 9.987772292486952e-01, 9.463105444771833e-01, 1.912823562372156e-02, 2.944216193479723e+00, 9.982932133582917e-01, 9.995153915445515e-01, 8.011152350406017e-01, -3.809791610956058e-03
38, -1.255810022354000e+00, 1.996052932739300e+01, 9.990088869056981e-01, 9.460892556409402e-01, 1.949684048457841e-02, 2.944690797416661e+00, 9.986056401638566e-01, 9.995963531985280e-01, 8.007161876116033e-01, -3.112410348534474e-03
39, -3.747629880905000e+00, 1.964574050903300e+01, 9.993297132293003e-01, 9.461573049352890e-01, 1.988719183347995e-02, 2.945744082188088e+00, 9.990556601358673e-01, 9.997257630891937e-01, 8.004717316206408e-01, -2.107901482438998e-03
40, -6.180339813232000e+00, 1.902112960815400e+01, 9.996196298090998e-01, 9.462444864728120e-01, 2.022044004425077e-02, 2.946738504634695e+00, 9.994697308760380e-01, 9.998500440281566e-01, 8.002695064783536e-01, -1.183636437415257e-03
41, -8.515589714050000e+00, 1.809654045105000e+01, 9.998262735317875e-01, 9.462877478534459e-01, 2.045883958934251e-02, 2.947420670175400e+00, 9.997613219093463e-01, 9.999350370917822e-01, 8.001109948534726e-01, -5.327635952091496e-04
42, -1.071654033660900e+01, 1.688656044006300e+01, 9.999764361538815e-01, 9.463472647084855e-01, 2.061846843111157e-02, 2.947934805782229e+00, 9.999700462479965e-01, 9.999936099435407e-01, 8.000206337833418e-01, -6.686105357933484e-05
43, -1.274847984314000e+01, 1.541026020050000e+01, 1.000066058960878e+00, 9.463578957396745e-01, 2.070410953003201e-02, 2.948220069636674e+00, 1.000095479732144e+00, 1.000029418827889e+00, 7.999451778078732e-01, 2.131244021075627e-04
44, -1.457936954498300e+01, 1.369093990325900e+01, 1.000119984734789e+00, 9.463553174104735e-01, 2.074320616519874e-02, 2.948379288967502e+00, 1.000169481241249e+00, 1.000049490568348e+00, 7.998925630184062e-01, 3.783063420740150e-04
45, -1.618033981323200e+01, 1.175570011138900e+01, 1.000150715324020e+00, 9.463457582783207e-01, 2.075259593516358e-02, 2.948460996926283e+00, 1.000211210025827e+00, 1.000060485585702e+00, 7.998556868988347e-01, 4.714509505060077e-04
46, -1.752613067627000e+01, 9.635069847106999e+00, 1.000167407903314e+00, 9.463325357822425e-01, 2.074542011546432e-02, 2.948498510781606e+00, 1.000234269824990e+00, 1.000066850730335e+00, 7.998284890561842e-01, 5.229237164964700e-04
47, -1.859552955627400e+01, 7.362490177155000e+00, 1.000176511110325e+00, 9.463194139235852e-01, 2.072771155620592e-02, 2.948514432709672e+00, 1.000247382291344e+00, 1.000070858673676e+00, 7.998081938384612e-01, 5.521926146081849e-04
48, -1.937166023254400e+01, 4.973800182343000e+00, 1.000184674822096e+00, 9.463100135188751e-01, 2.070471254459084e-02, 2.948529725842695e+00, 1.000258710057244e+00, 1.000074021565230e+00, 7.997920344379015e-01, 5.774778063491671e-04
49, -1.984229087829600e+01, 2.506659984589000e+00, 1.000190329094933e+00, 9.463040564750370e-01, 2.067898759696687e-02, 2.948540382932272e+00, 1.000266453007369e+00, 1.000076109426598e+00, 7.997811707516815e-01, 5.947611771640487e-04
50, 0.000000000000000e+00, 0.000000000000000e+00, 1.331032789027663e+00, -1.925422385529944e-05, 1.652459541050414e-01, 3.756496645286396e+00, 1.498495644883944e+00, 1.125814222787566e+00, 9.888825207795421e-02, 1.112713493044517e+00
51, 5.999999800000000e-05, 1.375329724321098e-03, 1.332706468172129e+00, 3.902885293333542e-02, 2.903450497951373e-01, 3.767485477188054e+00, 1.494114610659850e+00, 1.121113048028573e+00, 1.754607098980889e-01, 1.102934398794309e+00
52, 5.600000150000000e-04, 4.173159738460802e-03, 1.304041101438335e+00, 1.235275213175739e-01, 4.561528171335003e-01, 3.701914484443887e+00, 1.446513124769598e+00, 1.109254242963752e+00, 2.908084381974489e-01, 9.966810820749957e-01
53, 1.560000004000000e-03, 6.917517506923035e-03, 1.236473462007404e+00, 2.614736256404922e-01, 5.706958956590777e-01, 3.532433203835416e+00, 1.349233577555733e+00, 1.091194933828393e+00, 4.107545993634621e-01, 7.795392356154760e-01
54, 3.049999941000000e-03, 9.605565346412577e-03, 1.179862975236488e+00, 4.080487686382298e-01, 6.264881593941810e-01, 3.394943338059609e+00, 1.263222058860291e+00, 1.070651495447676e+00, 5.175863747627673e-01, 5.875492385274348e-01
55, 5.040000193000000e-03, 1.226032473458219e-02, 1.121713231695842e+00, 5.382212134903781e-01, 6.336208305402483e-01, 3.251299576147456e+00, 1.177287365687098e+00, 1.049543976500338e+00, 6.114237581150519e-01, 3.957307269801304e-01
56, 7.519999985000000e-03, 1.486756313872443e-02, 1.069417943653928e+00, 6.437875720826177e-01, 6.105990075459197e-01, 3.120971413236578e+00, 1.101150791577442e+00, 1.029673008678993e+00, 6.910463982186013e-01, 2.257830169139324e-01
57, 1.049000024800000e-02, 1.742916196961543e-02, 1.022877185896902e+00, 7.245255488497355e-01, 5.721287693679535e-01, 3.003584364922001e+00, 1.034792313072397e+00, 1.011648639093507e+00, 7.583782743125755e-01, 7.766141310802965e-02
58, 1.394999958600000e-02, 1.994492353858276e-02, 9.828902880565106e-01, 7.842330721767810e-01, 5.275423045409953e-01, 2.901629105635618e+00, 9.788770524691265e-01, 9.959169038130191e-01, 8.143732450248068e-01, -4.714943645284268e-02
59, 1.789999939500000e-02, 2.241364555514381e-02, 9.495221582901943e-01, 8.300258649577550e-01, 4.837636538217545e-01, 2.816553006740616e+00, 9.322138997808856e-01, 9.817716117963213e-01, 8.630172665642558e-01, -1.513082594176660e-01
60, 2.232000045500000e-02, 2.482329437156798e-02, 9.185648301174112e-01, 8.624177018630879e-01, 4.409647891924257e-01, 2.736302799960730e+00, 8.902428356362164e-01, 9.691671251145392e-01, 9.052694020508093e-01, -2.449936704548741e-01
61, 2.723000012300000e-02, 2.718419978786347e-02, 8.934351140819009e-01, 8.861200701472761e-01, 4.014893109763052e-01, 2.670849365560062e+00, 8.564827393458987e-01, 9.586401136987159e-01, 9.399031236440277e-01, -3.203510282457619e-01
62, 3.260000050100000e-02, 2.948109446637338e-02, 8.724781202502828e-01, 9.047056225524580e-01, 3.658975561270006e-01, 2.616362324635424e+00, 8.282303926862827e-01, 9.492850003489979e-01, 9.702568788621192e-01, -3.834143020395476e-01
63, 3.844000026600000e-02, 3.171811260404538e-02, 8.525170612948507e-01, 9.180568466354694e-01, 3.334230257338981e-01, 2.563995004412503e+00, 8.017903312663436e-01, 9.404976951998349e-01, 9.984539981199256e-01, -4.424322962804833e-01
64, 4.473999887700000e-02, 3.389028465845557e-02, 8.344225604930635e-01, 9.275065456378689e-01, 3.038480630717634e-01, 2.516193489014012e+00, 7.781537421629977e-01, 9.325655597125558e-01, 1.023678852751162e+00, -4.951925398147374e-01
65, 5.149000138000000e-02, 3.599337852580232e-02, 8.188611657681423e-01, 9.346571761561587e-01, 2.771089052139422e-01, 2.475021951489465e+00, 7.578880201986150e-01, 9.255390924390331e-01, 1.045864580847387e+00, -5.404285263423774e-01
66, 5.869000032500000e-02, 3.802635805630503e-02, 8.047610623737559e-01, 9.394515583798438e-01, 2.526918464961215e-01, 2.437462704770348e+00, 7.397792688842507e-01, 9.192533081833852e-01, 1.065599312022665e+00, -5.808498462405119e-01
67, 6.633000075800000e-02, 3.998513962421356e-02, 7.922340927658479e-01, 9.437710513048063e-01, 2.306581112406324e-01, 2.404339076943858e+00, 7.234457186969592e-01, 9.131716563361534e-01, 1.084603090056177e+00, -6.173086636228592e-01
68, 7.440000027400000e-02, 4.186607976498817e-02, 7.791053640250623e-01, 9.455979600770281e-01, 2.101576526893789e-01, 2.369159592366350e+00, 7.067922464242693e-01, 9.071844182573657e-01, 1.103234631363506e+00, -6.544815928029706e-01
69, 8.290000259900000e-02, 4.366791468532204e-02, 7.675121324467679e-01, 9.465712594997959e-01, 1.913302400878272e-01, 2.338000871506217e+00, 6.921802396929305e-01, 9.018492482800432e-01, 1.119779445638821e+00, -6.870976792568517e-01
70, 9.181000292300000e-02, 4.538527151431038e-02, 7.577297232884171e-01, 9.472779759002430e-01, 1.740291631219607e-01, 2.311715703345931e+00, 6.798439095182801e-01, 8.972116159939906e-01, 1.134121719527520e+00, -7.146341305395536e-01
71, 1.011300012470000e-01, 4.701715290498424e-02, 7.489719877255596e-01, 9.473464475189125e-01, 1.579887787138757e-01, 2.288072433241987e+00, 6.689111507498174e-01, 8.931056991612371e-01, 1.146792079730703e+00, -7.390376099334435e-01
72, 1.108499988910000e-01, 4.856066993422563e-02, 7.410110845910812e-01, 9.473338009625804e-01, 1.431318765469669e-01, 2.266645465944495e+00, 6.589080288922013e-01, 8.892013123606813e-01, 1.158818858300955e+00, -7.613660069370508e-01
73, 1.209499984980000e-01, 5.001187382363489e-02, 7.327504336657832e-01, 9.466980153279805e-01, 1.292237401161376e-01, 2.244371834668083e+00, 6.485681492394408e-01, 8.851146576533601e-01, 1.171386665919544e+00, -7.844460954476770e-01
74, 1.314399987460000e-01, 5.137133628795417e-02, 7.241329741684238e-01, 9.453183743755775e-01, 1.161671085834850e-01, 2.221041315591732e+00, 6.378764573797407e-01, 8.808830423890889e-01, 1.184380623640416e+00, -8.083114790630790e-01
75, 1.422899961470000e-01, 5.263443049277360e-02, 7.157188393177454e-01, 9.430435787357936e-01, 1.038552203093350e-01, 2.198018876532164e+00, 6.276794228809351e-01, 8.769916179365443e-01, 1.196314365008477e+00, -8.310727167836272e-01
76, 1.534900069240000e-01, 5.379977779145956e-02, 7.088800427776651e-01, 9.417825741869902e-01, 9.241771678267308e-02, 2.179535087781229e+00, 6.191632628016501e-01, 8.734386996924473e-01, 1.207198561639717e+00, -8.500820026748884e-01
77, 1.650400012730000e-01, 5.486709202536137e-02, 7.019144395178392e-01, 9.397229852442689e-01, 8.159269622049002e-02, 2.160510634333001e+00, 6.106871277187788e-01, 8.700307235996935e-01, 1.217629756352164e+00, -8.690019470562977e-01
78, 1.769299954180000e-01, 5.583513598033686e-02, 6.956140908983584e-01, 9.376234962694351e-01, 7.139334922480413e-02, 2.143253619983488e+00, 6.030700163304454e-01, 8.669606096558569e-01, 1.227020271131094e+00, -8.860044278338275e-01
79, 1.891400069000000e-01, 5.670228146432130e-02, 6.900263932507504e-01, 9.358896516240173e-01, 6.179269004161675e-02, 2.128029361086994e+00, 5.962337362994405e-01, 8.640738124386116e-01, 1.235845195374732e+00, -9.012639814744634e-01
80, 2.016600072380000e-01, 5.746811193675738e-02, 6.842994204555060e-01, 9.337143971736513e-01, 5.269612803633950e-02, 2.112336879231056e+00, 5.893158131823772e-01, 8.611958384972727e-01, 1.244639129761320e+00, -9.167057741464797e-01
81, 2.144699990750000e-01, 5.813197420944613e-02, 6.786727516516198e-01, 9.314303587756242e-01, 4.408444590992822e-02, 2.096911050792666e+00, 5.825272428249564e-01, 8.583330351886334e-01, 1.253383389550034e+00, -9.318588329800084e-01
82, 2.275699973110000e-01, 5.869456802648413e-02, 6.731593207289716e-01, 9.290942266387833e-01, 3.593318182600169e-02, 2.081801201708659e+00, 5.758697623146009e-01, 8.554732060918138e-01, 1.262115903167400e+00, -9.467192805477663e-01
83, 2.409400045870000e-01, 5.915585896897953e-02, 6.676963061754910e-01, 9.263348664855026e-01, 2.819794853557621e-02, 2.066694829512848e+00, 5.694078522122213e-01, 8.527946716880047e-01, 1.270292982306383e+00, -9.611431870262920e-01
